Wavelength	n	k
193	1.9853	1.28975
194	1.97069	1.30044
195	1.9598	1.31147
196	1.95226	1.32239
197	1.94766	1.33285
198	1.94561	1.34258
199	1.94571	1.35143
200	1.94759	1.35928
201	1.9509	1.36608
202	1.95533	1.37185
203	1.96062	1.37661
204	1.96652	1.38045
205	1.97284	1.38346
206	1.9794	1.38573
207	1.98608	1.38738
208	1.99277	1.38854
209	1.99939	1.38932
210	2.00589	1.38985
211	2.01223	1.39023
212	2.01842	1.39057
213	2.02445	1.39098
214	2.03036	1.39154
215	2.03617	1.39233
216	2.04194	1.39341
217	2.04773	1.39484
218	2.05359	1.39666
219	2.0596	1.3989
220	2.06583	1.40156
221	2.07236	1.40466
222	2.07924	1.40817
223	2.08656	1.41208
224	2.09438	1.41635
225	2.10275	1.42093
226	2.11172	1.42577
227	2.12135	1.43082
228	2.13166	1.436
229	2.14268	1.44124
230	2.15442	1.44646
231	2.16689	1.45161
232	2.18008	1.45658
233	2.19399	1.46132
234	2.20857	1.46575
235	2.22381	1.4698
236	2.23965	1.4734
237	2.25605	1.47652
238	2.27297	1.47908
239	2.29033	1.48106
240	2.30807	1.48242
241	2.32613	1.48313
242	2.34444	1.48317
243	2.36293	1.48255
244	2.38153	1.48126
245	2.40017	1.47931
246	2.41881	1.47673
247	2.43737	1.47354
248	2.4558	1.46978
249	2.47406	1.46548
250	2.49212	1.46071
251	2.50993	1.45551
252	2.52749	1.44993
253	2.54479	1.44403
254	2.56182	1.43788
255	2.5786	1.43152
256	2.59515	1.42501
257	2.61151	1.4184
258	2.62771	1.41172
259	2.6438	1.405
260	2.65984	1.39827
261	2.67588	1.39154
262	2.692	1.38479
263	2.70825	1.37803
264	2.72469	1.37121
265	2.74137	1.3643
266	2.75836	1.35725
267	2.77568	1.34999
268	2.79337	1.34245
269	2.81145	1.33456
270	2.82992	1.32622
271	2.84878	1.31736
272	2.868	1.30788
273	2.88755	1.2977
274	2.90737	1.28675
275	2.9274	1.27494
276	2.94758	1.26221
277	2.96781	1.24851
278	2.988	1.23378
279	3.00806	1.21801
280	3.02787	1.20116
281	3.04735	1.18324
282	3.06637	1.16426
283	3.08485	1.14422
284	3.10266	1.12316
285	3.11973	1.10114
286	3.13596	1.07819
287	3.15126	1.0544
288	3.16557	1.02982
289	3.17881	1.00455
290	3.19094	0.97866
291	3.20189	0.95224
292	3.21164	0.92539
293	3.22017	0.89821
294	3.22745	0.87078
295	3.23348	0.8432
296	3.23826	0.81557
297	3.24181	0.78797
298	3.24413	0.7605
299	3.24527	0.73324
300	3.24525	0.70626
301	3.24411	0.67964
302	3.24191	0.65345
303	3.23868	0.62774
304	3.23448	0.60258
305	3.22937	0.57801
306	3.22341	0.55407
307	3.21666	0.53081
308	3.20917	0.50826
309	3.20101	0.48643
310	3.19225	0.46535
311	3.18294	0.44502
312	3.17313	0.42547
313	3.16289	0.40669
314	3.15228	0.38869
315	3.14134	0.37145
316	3.13013	0.35497
317	3.1187	0.33924
318	3.10708	0.32425
319	3.09533	0.30997
320	3.08348	0.29639
321	3.07156	0.28349
322	3.05962	0.27124
323	3.04767	0.25962
324	3.03576	0.24862
325	3.02389	0.23819
326	3.01211	0.22833
327	3.00041	0.219
328	2.98883	0.21018
329	2.97737	0.20185
330	2.96605	0.19398
331	2.95487	0.18655
332	2.94386	0.17953
333	2.93301	0.1729
334	2.92233	0.16665
335	2.91183	0.16075
336	2.90151	0.15518
337	2.89137	0.14992
338	2.88141	0.14496
339	2.87163	0.14028
340	2.86203	0.13587
341	2.85262	0.1317
342	2.84338	0.12776
343	2.83432	0.12405
344	2.82544	0.12054
345	2.81673	0.11723
346	2.8082	0.1141
347	2.79983	0.11115
348	2.79162	0.10837
349	2.78357	0.10574
350	2.77569	0.10326
351	2.76795	0.10091
352	2.76037	0.0987
353	2.75293	0.09662
354	2.74564	0.09465
355	2.73848	0.0928
356	2.73147	0.09105
357	2.72458	0.0894
358	2.71783	0.08785
359	2.7112	0.0864
360	2.7047	0.08502
361	2.69832	0.08373
362	2.69205	0.08252
363	2.6859	0.08139
364	2.67986	0.08032
365	2.67393	0.07933
366	2.66811	0.0784
367	2.66239	0.07753
368	2.65677	0.07672
369	2.65124	0.07596
370	2.64582	0.07526
371	2.64049	0.07462
372	2.63525	0.07402
373	2.6301	0.07347
374	2.62503	0.07296
375	2.62005	0.0725
376	2.61516	0.07208
377	2.61034	0.0717
378	2.60561	0.07136
379	2.60095	0.07105
380	2.59636	0.07078
381	2.59185	0.07055
382	2.58742	0.07034
383	2.58305	0.07017
384	2.57875	0.07003
385	2.57451	0.06991
386	2.57034	0.06983
387	2.56624	0.06977
388	2.5622	0.06973
389	2.55821	0.06972
390	2.55429	0.06974
391	2.55043	0.06978
392	2.54662	0.06983
393	2.54287	0.06992
394	2.53917	0.07002
395	2.53552	0.07014
396	2.53193	0.07028
397	2.52839	0.07044
398	2.5249	0.07061
399	2.52145	0.07081
400	2.51806	0.07102
401	2.51471	0.07125
402	2.5114	0.07149
403	2.50814	0.07175
404	2.50493	0.07202
405	2.50175	0.07231
406	2.49862	0.07261
407	2.49553	0.07293
408	2.49248	0.07326
409	2.48946	0.0736
410	2.48649	0.07396
411	2.48355	0.07433
412	2.48066	0.07471
413	2.47779	0.0751
414	2.47497	0.0755
415	2.47217	0.07591
416	2.46942	0.07634
417	2.46669	0.07677
418	2.464	0.07722
419	2.46134	0.07768
420	2.45871	0.07814
421	2.45612	0.07862
422	2.45355	0.07911
423	2.45101	0.0796
424	2.44851	0.08011
425	2.44603	0.08062
426	2.44358	0.08114
427	2.44116	0.08167
428	2.43877	0.08221
429	2.4364	0.08276
430	2.43406	0.08332
431	2.43174	0.08389
432	2.42946	0.08446
433	2.4272	0.08504
434	2.42496	0.08563
435	2.42274	0.08623
436	2.42056	0.08683
437	2.41839	0.08744
438	2.41625	0.08806
439	2.41413	0.08869
440	2.41204	0.08933
441	2.40997	0.08997
442	2.40792	0.09062
443	2.40589	0.09127
444	2.40388	0.09193
445	2.4019	0.0926
446	2.39993	0.09328
447	2.39799	0.09396
448	2.39607	0.09465
449	2.39417	0.09534
450	2.39228	0.09604
451	2.39042	0.09675
452	2.38858	0.09747
453	2.38676	0.09819
454	2.38495	0.09891
455	2.38317	0.09964
456	2.3814	0.10038
457	2.37965	0.10113
458	2.37792	0.10187
459	2.37621	0.10263
460	2.37451	0.10339
461	2.37284	0.10416
462	2.37118	0.10493
463	2.36954	0.1057
464	2.36791	0.10649
465	2.3663	0.10727
466	2.36471	0.10807
467	2.36314	0.10886
468	2.36158	0.10967
469	2.36004	0.11047
470	2.35852	0.11129
471	2.35701	0.1121
472	2.35551	0.11293
473	2.35404	0.11375
474	2.35257	0.11458
475	2.35113	0.11542
476	2.3497	0.11626
477	2.34828	0.11711
478	2.34688	0.11795
479	2.3455	0.11881
480	2.34413	0.11966
481	2.34277	0.12053
482	2.34143	0.12139
483	2.3401	0.12226
484	2.33879	0.12314
485	2.33749	0.12401
486	2.33621	0.1249
487	2.33494	0.12578
488	2.33368	0.12667
489	2.33244	0.12756
490	2.33121	0.12846
491	2.32999	0.12936
492	2.32879	0.13026
493	2.3276	0.13117
494	2.32643	0.13208
495	2.32527	0.13299
496	2.32412	0.13391
497	2.32298	0.13483
498	2.32186	0.13575
499	2.32075	0.13667
500	2.31965	0.1376
501	2.31857	0.13853
502	2.3175	0.13947
503	2.31644	0.14041
504	2.31539	0.14134
505	2.31436	0.14229
506	2.31333	0.14323
507	2.31232	0.14418
508	2.31133	0.14513
509	2.31034	0.14608
510	2.30936	0.14703
511	2.3084	0.14799
512	2.30745	0.14895
513	2.30651	0.14991
514	2.30558	0.15087
515	2.30467	0.15184
516	2.30376	0.1528
517	2.30287	0.15377
518	2.30199	0.15474
519	2.30112	0.15571
520	2.30025	0.15668
521	2.29941	0.15766
522	2.29857	0.15864
523	2.29774	0.15962
524	2.29692	0.1606
525	2.29612	0.16158
526	2.29532	0.16256
527	2.29454	0.16354
528	2.29376	0.16453
529	2.293	0.16552
530	2.29225	0.1665
531	2.2915	0.16749
532	2.29077	0.16848
533	2.29005	0.16947
534	2.28933	0.17047
535	2.28863	0.17146
536	2.28794	0.17245
537	2.28726	0.17344
538	2.28658	0.17444
539	2.28592	0.17544
540	2.28526	0.17643
541	2.28462	0.17743
542	2.28398	0.17843
543	2.28336	0.17943
544	2.28274	0.18042
545	2.28213	0.18142
546	2.28154	0.18242
547	2.28095	0.18342
548	2.28037	0.18442
549	2.2798	0.18542
550	2.27924	0.18642
551	2.27868	0.18742
552	2.27814	0.18842
553	2.2776	0.18943
554	2.27708	0.19043
555	2.27656	0.19143
556	2.27605	0.19243
557	2.27555	0.19343
558	2.27506	0.19443
559	2.27457	0.19543
560	2.27409	0.19643
561	2.27363	0.19743
562	2.27317	0.19843
563	2.27271	0.19943
564	2.27227	0.20043
565	2.27183	0.20143
566	2.27141	0.20243
567	2.27099	0.20343
568	2.27057	0.20443
569	2.27017	0.20543
570	2.26977	0.20642
571	2.26938	0.20742
572	2.269	0.20842
573	2.26863	0.20941
574	2.26826	0.21041
575	2.2679	0.2114
576	2.26755	0.2124
577	2.2672	0.21339
578	2.26686	0.21438
579	2.26653	0.21537
580	2.26621	0.21637
581	2.26589	0.21735
582	2.26558	0.21835
583	2.26528	0.21933
584	2.26498	0.22032
585	2.26469	0.22131
586	2.26441	0.2223
587	2.26413	0.22328
588	2.26386	0.22427
589	2.2636	0.22525
590	2.26334	0.22623
591	2.26309	0.22722
592	2.26285	0.2282
593	2.26261	0.22918
594	2.26238	0.23016
595	2.26215	0.23114
596	2.26193	0.23211
597	2.26172	0.23309
598	2.26151	0.23407
599	2.26131	0.23504
600	2.26112	0.23602
601	2.26093	0.23699
602	2.26075	0.23796
603	2.26057	0.23893
604	2.2604	0.2399
605	2.26023	0.24087
606	2.26007	0.24183
607	2.25992	0.2428
608	2.25977	0.24377
609	2.25963	0.24473
610	2.25949	0.24569
611	2.25936	0.24666
612	2.25923	0.24762
613	2.25911	0.24858
614	2.25899	0.24954
615	2.25888	0.25049
616	2.25878	0.25145
617	2.25868	0.2524
618	2.25858	0.25336
619	2.25849	0.25431
620	2.25841	0.25526
621	2.25833	0.25621
622	2.25825	0.25716
623	2.25818	0.25811
624	2.25812	0.25906
625	2.25806	0.26
626	2.258	0.26095
627	2.25795	0.26189
628	2.25791	0.26284
629	2.25787	0.26378
630	2.25783	0.26472
631	2.2578	0.26566
632	2.25778	0.2666
633	2.25775	0.26753
634	2.25774	0.26847
635	2.25772	0.2694
636	2.25772	0.27034
637	2.25771	0.27127
638	2.25772	0.2722
639	2.25772	0.27313
640	2.25773	0.27406
641	2.25774	0.27499
642	2.25776	0.27592
643	2.25779	0.27684
644	2.25781	0.27777
645	2.25785	0.27869
646	2.25788	0.27961
647	2.25792	0.28053
648	2.25797	0.28145
649	2.25802	0.28237
650	2.25807	0.28329
651	2.25813	0.28421
652	2.25819	0.28512
653	2.25826	0.28604
654	2.25833	0.28695
655	2.2584	0.28786
656	2.25848	0.28877
657	2.25856	0.28969
658	2.25865	0.29059
659	2.25874	0.2915
660	2.25883	0.29241
661	2.25893	0.29331
662	2.25903	0.29422
663	2.25914	0.29512
664	2.25925	0.29603
665	2.25936	0.29693
666	2.25948	0.29783
667	2.2596	0.29873
668	2.25973	0.29962
669	2.25985	0.30052
670	2.25999	0.30142
671	2.26012	0.30231
672	2.26027	0.30321
673	2.26041	0.3041
674	2.26056	0.30499
675	2.26071	0.30588
676	2.26087	0.30677
677	2.26103	0.30766
678	2.26119	0.30855
679	2.26136	0.30944
680	2.26153	0.31032
681	2.2617	0.31121
682	2.26188	0.31209
683	2.26206	0.31297
684	2.26225	0.31385
685	2.26244	0.31473
686	2.26263	0.31561
687	2.26283	0.31649
688	2.26303	0.31737
689	2.26323	0.31825
690	2.26344	0.31912
691	2.26365	0.31999
692	2.26386	0.32087
693	2.26408	0.32174
694	2.2643	0.32261
695	2.26453	0.32348
696	2.26476	0.32435
697	2.26499	0.32521
698	2.26523	0.32608
699	2.26546	0.32695
700	2.26571	0.32781
701	2.26595	0.32867
702	2.2662	0.32954
703	2.26646	0.3304
704	2.26672	0.33126
705	2.26698	0.33212
706	2.26724	0.33297
707	2.26751	0.33383
708	2.26778	0.33469
709	2.26805	0.33554
710	2.26833	0.33639
711	2.26861	0.33725
712	2.2689	0.3381
713	2.26918	0.33895
714	2.26948	0.3398
715	2.26977	0.34064
716	2.27007	0.34149
717	2.27037	0.34233
718	2.27068	0.34318
719	2.27099	0.34402
720	2.2713	0.34486
721	2.27162	0.3457
722	2.27194	0.34654
723	2.27226	0.34738
724	2.27258	0.34822
725	2.27291	0.34905
726	2.27325	0.34989
727	2.27358	0.35072
728	2.27392	0.35155
729	2.27427	0.35238
730	2.27461	0.35321
731	2.27496	0.35404
732	2.27532	0.35487
733	2.27567	0.35569
734	2.27603	0.35652
735	2.27639	0.35734
736	2.27676	0.35816
737	2.27713	0.35898
738	2.27751	0.3598
739	2.27788	0.36062
740	2.27826	0.36143
741	2.27865	0.36225
742	2.27903	0.36306
743	2.27942	0.36387
744	2.27982	0.36468
745	2.28021	0.36549
746	2.28061	0.3663
747	2.28102	0.3671
748	2.28142	0.36791
749	2.28183	0.36871
750	2.28224	0.36951
751	2.28266	0.37031
752	2.28308	0.37111
753	2.2835	0.37191
754	2.28393	0.37271
755	2.28436	0.3735
756	2.28479	0.37429
757	2.28523	0.37508
758	2.28567	0.37587
759	2.28611	0.37666
760	2.28655	0.37745
761	2.287	0.37823
762	2.28746	0.37901
763	2.28791	0.37979
764	2.28837	0.38057
765	2.28883	0.38135
766	2.2893	0.38213
767	2.28976	0.3829
768	2.29023	0.38368
769	2.29071	0.38445
770	2.29119	0.38522
771	2.29167	0.38598
772	2.29215	0.38675
773	2.29264	0.38751
774	2.29313	0.38827
775	2.29362	0.38904
776	2.29412	0.38979
777	2.29461	0.39055
778	2.29512	0.39131
779	2.29562	0.39206
780	2.29613	0.39281
781	2.29664	0.39356
782	2.29716	0.39431
783	2.29767	0.39505
784	2.2982	0.3958
785	2.29872	0.39654
786	2.29925	0.39727
787	2.29977	0.39801
788	2.30031	0.39875
789	2.30084	0.39948
790	2.30138	0.40021
791	2.30192	0.40094
792	2.30247	0.40167
793	2.30301	0.4024
794	2.30356	0.40312
795	2.30412	0.40384
796	2.30467	0.40456
797	2.30523	0.40528
798	2.30579	0.40599
799	2.30636	0.4067
800	2.30693	0.40741
801	2.3075	0.40812
802	2.30807	0.40883
803	2.30865	0.40953
804	2.30923	0.41023
805	2.30981	0.41093
806	2.31039	0.41163
807	2.31098	0.41232
808	2.31157	0.41302
809	2.31216	0.4137
810	2.31276	0.41439
811	2.31335	0.41508
812	2.31395	0.41576
813	2.31456	0.41644
814	2.31516	0.41712
815	2.31577	0.4178
816	2.31638	0.41847
817	2.317	0.41914
818	2.31761	0.41981
819	2.31823	0.42048
820	2.31886	0.42114
821	2.31948	0.4218
822	2.32011	0.42246
823	2.32074	0.42312
824	2.32137	0.42377
825	2.322	0.42442
826	2.32264	0.42507
827	2.32328	0.42572
828	2.32392	0.42636
829	2.32456	0.42701
830	2.32521	0.42764
831	2.32586	0.42828
832	2.32651	0.42891
833	2.32716	0.42955
834	2.32782	0.43017
835	2.32848	0.4308
836	2.32914	0.43142
837	2.3298	0.43204
838	2.33047	0.43266
839	2.33114	0.43328
840	2.33181	0.43389
841	2.33248	0.4345
842	2.33315	0.43511
843	2.33383	0.43571
844	2.33451	0.43631
845	2.33519	0.43691
846	2.33587	0.43751
847	2.33656	0.4381
848	2.33724	0.4387
849	2.33793	0.43928
850	2.33863	0.43987
851	2.33932	0.44045
852	2.34002	0.44103
853	2.34071	0.44161
854	2.34141	0.44218
855	2.34212	0.44276
856	2.34282	0.44332
857	2.34352	0.44389
858	2.34423	0.44445
859	2.34494	0.44501
860	2.34565	0.44557
861	2.34637	0.44612
862	2.34708	0.44668
863	2.3478	0.44722
864	2.34852	0.44777
865	2.34924	0.44831
866	2.34996	0.44885
867	2.35068	0.44939
868	2.35141	0.44993
869	2.35214	0.45046
870	2.35287	0.45099
871	2.3536	0.45151
872	2.35433	0.45203
873	2.35507	0.45255
874	2.3558	0.45307
875	2.35654	0.45358
876	2.35728	0.4541
877	2.35802	0.4546
878	2.35876	0.45511
879	2.35951	0.45561
880	2.36025	0.45611
881	2.361	0.4566
882	2.36175	0.4571
883	2.3625	0.45759
884	2.36325	0.45808
885	2.364	0.45856
886	2.36476	0.45904
887	2.36551	0.45952
888	2.36627	0.45999
889	2.36703	0.46047
890	2.36779	0.46093
891	2.36855	0.4614
892	2.36931	0.46186
893	2.37007	0.46232
894	2.37084	0.46278
895	2.37161	0.46324
896	2.37237	0.46369
897	2.37314	0.46413
898	2.37391	0.46458
899	2.37468	0.46502
900	2.37546	0.46546
901	2.37623	0.4659
902	2.377	0.46633
903	2.37778	0.46676
904	2.37856	0.46719
905	2.37933	0.46761
906	2.38011	0.46803
907	2.38089	0.46845
908	2.38167	0.46886
909	2.38245	0.46927
910	2.38324	0.46968
911	2.38402	0.47009
912	2.3848	0.47049
913	2.38559	0.47089
914	2.38638	0.47129
915	2.38716	0.47168
916	2.38795	0.47207
917	2.38874	0.47246
918	2.38953	0.47284
919	2.39032	0.47322
920	2.39111	0.4736
921	2.3919	0.47397
922	2.3927	0.47435
923	2.39349	0.47472
924	2.39428	0.47508
925	2.39508	0.47545
926	2.39588	0.4758
927	2.39667	0.47616
928	2.39747	0.47652
929	2.39826	0.47687
930	2.39906	0.47722
931	2.39986	0.47756
932	2.40066	0.4779
933	2.40146	0.47824
934	2.40226	0.47858
935	2.40306	0.47891
936	2.40386	0.47924
937	2.40467	0.47957
938	2.40547	0.47989
939	2.40627	0.48021
940	2.40707	0.48053
941	2.40788	0.48084
942	2.40868	0.48116
943	2.40949	0.48146
944	2.41029	0.48177
945	2.41109	0.48207
946	2.4119	0.48237
947	2.4127	0.48267
948	2.41351	0.48296
949	2.41432	0.48325
950	2.41512	0.48354
951	2.41593	0.48383
952	2.41674	0.48411
953	2.41755	0.48439
954	2.41835	0.48467
955	2.41916	0.48494
956	2.41997	0.48521
957	2.42077	0.48548
958	2.42158	0.48574
959	2.42239	0.48601
960	2.4232	0.48626
961	2.42401	0.48652
962	2.42482	0.48677
963	2.42563	0.48702
964	2.42643	0.48727
965	2.42724	0.48752
966	2.42805	0.48776
967	2.42886	0.488
968	2.42967	0.48823
969	2.43048	0.48847
970	2.43128	0.4887
971	2.43209	0.48892
972	2.4329	0.48915
973	2.43371	0.48937
974	2.43452	0.48959
975	2.43533	0.48981
976	2.43613	0.49002
977	2.43694	0.49023
978	2.43775	0.49044
979	2.43856	0.49064
980	2.43936	0.49084
981	2.44017	0.49105
982	2.44098	0.49124
983	2.44178	0.49144
984	2.44259	0.49163
985	2.4434	0.49182
986	2.4442	0.492
987	2.44501	0.49218
988	2.44581	0.49237
989	2.44662	0.49254
990	2.44742	0.49272
991	2.44823	0.49289
992	2.44903	0.49306
993	2.44984	0.49323
994	2.45064	0.49339
995	2.45144	0.49355
996	2.45225	0.49371
997	2.45305	0.49387
998	2.45385	0.49402
999	2.45465	0.49417
1000	2.45545	0.49432
1001	2.45625	0.49447
1002	2.45705	0.49461
1003	2.45785	0.49475
1004	2.45865	0.49489
1005	2.45945	0.49503
1006	2.46025	0.49516
1007	2.46104	0.49529
1008	2.46184	0.49542
1009	2.46264	0.49554
1010	2.46343	0.49567
1011	2.46423	0.49579
1012	2.46502	0.4959
1013	2.46582	0.49602
1014	2.46661	0.49613
1015	2.4674	0.49624
1016	2.4682	0.49635
1017	2.46899	0.49645
1018	2.46978	0.49656
1019	2.47057	0.49666
1020	2.47136	0.49676
1021	2.47215	0.49685
1022	2.47294	0.49695
1023	2.47372	0.49704
1024	2.47451	0.49712
1025	2.4753	0.49721
1026	2.47608	0.49729
1027	2.47687	0.49738
1028	2.47765	0.49745
1029	2.47844	0.49753
1030	2.47922	0.4976
1031	2.48	0.49767
1032	2.48078	0.49774
1033	2.48156	0.49781
1034	2.48234	0.49788
1035	2.48312	0.49794
1036	2.4839	0.498
1037	2.48468	0.49806
1038	2.48545	0.49811
1039	2.48623	0.49817
1040	2.487	0.49822
1041	2.48778	0.49827
1042	2.48855	0.49831
1043	2.48932	0.49836
1044	2.49009	0.4984
1045	2.49086	0.49844
1046	2.49163	0.49848
1047	2.4924	0.49851
1048	2.49317	0.49854
1049	2.49394	0.49857
1050	2.4947	0.4986
1051	2.49547	0.49863
1052	2.49623	0.49866
1053	2.49699	0.49868
1054	2.49776	0.4987
1055	2.49852	0.49872
1056	2.49928	0.49873
1057	2.50004	0.49875
1058	2.5008	0.49876
1059	2.50155	0.49877
1060	2.50231	0.49878
1061	2.50306	0.49878
1062	2.50382	0.49879
1063	2.50457	0.49879
1064	2.50532	0.49879
1065	2.50608	0.49878
1066	2.50683	0.49878
1067	2.50758	0.49877
1068	2.50832	0.49877
1069	2.50907	0.49876
1070	2.50982	0.49874
1071	2.51056	0.49873
1072	2.51131	0.49871
1073	2.51205	0.49869
1074	2.51279	0.49867
1075	2.51353	0.49865
1076	2.51427	0.49863
1077	2.51501	0.4986
1078	2.51575	0.49857
1079	2.51648	0.49854
1080	2.51722	0.49851
1081	2.51795	0.49848
1082	2.51869	0.49844
1083	2.51942	0.4984
1084	2.52015	0.49837
1085	2.52088	0.49833
1086	2.52161	0.49828
1087	2.52234	0.49824
1088	2.52306	0.49819
1089	2.52379	0.49814
1090	2.52451	0.49809
1091	2.52523	0.49804
1092	2.52596	0.49799
1093	2.52668	0.49793
1094	2.52739	0.49788
1095	2.52811	0.49782
1096	2.52883	0.49776
1097	2.52955	0.4977
1098	2.53026	0.49763
1099	2.53098	0.49756
1100	2.53169	0.4975
1101	2.5324	0.49743
1102	2.53311	0.49736
1103	2.53382	0.49729
1104	2.53452	0.49721
1105	2.53523	0.49714
1106	2.53594	0.49706
1107	2.53664	0.49698
1108	2.53734	0.4969
1109	2.53804	0.49682
1110	2.53874	0.49673
1111	2.53944	0.49665
1112	2.54014	0.49656
1113	2.54084	0.49647
1114	2.54153	0.49638
1115	2.54223	0.49629
1116	2.54292	0.4962
1117	2.54361	0.4961
1118	2.5443	0.49601
1119	2.54499	0.49591
1120	2.54568	0.49581
1121	2.54637	0.49571
1122	2.54705	0.49561
1123	2.54773	0.4955
1124	2.54842	0.4954
1125	2.5491	0.49529
1126	2.54978	0.49518
1127	2.55046	0.49507
1128	2.55114	0.49496
1129	2.55181	0.49485
1130	2.55249	0.49474
1131	2.55316	0.49462
1132	2.55383	0.4945
1133	2.5545	0.49439
1134	2.55518	0.49427
1135	2.55584	0.49415
1136	2.55651	0.49402
1137	2.55718	0.4939
1138	2.55784	0.49378
1139	2.55851	0.49365
1140	2.55917	0.49352
1141	2.55983	0.49339
1142	2.56049	0.49326
1143	2.56115	0.49313
1144	2.5618	0.493
1145	2.56246	0.49286
1146	2.56311	0.49273
1147	2.56377	0.49259
1148	2.56442	0.49245
1149	2.56507	0.49231
1150	2.56572	0.49217
1151	2.56637	0.49203
1152	2.56701	0.49189
1153	2.56766	0.49174
1154	2.5683	0.4916
1155	2.56895	0.49145
1156	2.56959	0.4913
1157	2.57023	0.49115
1158	2.57087	0.491
1159	2.5715	0.49085
1160	2.57214	0.4907
1161	2.57277	0.49055
1162	2.57341	0.49039
1163	2.57404	0.49023
1164	2.57467	0.49008
1165	2.5753	0.48992
1166	2.57593	0.48976
1167	2.57655	0.4896
1168	2.57718	0.48944
1169	2.5778	0.48927
1170	2.57843	0.48911
1171	2.57905	0.48894
1172	2.57967	0.48878
1173	2.58029	0.48861
1174	2.58091	0.48844
1175	2.58152	0.48827
1176	2.58214	0.4881
1177	2.58275	0.48793
1178	2.58336	0.48776
1179	2.58397	0.48758
1180	2.58458	0.48741
1181	2.58519	0.48723
1182	2.5858	0.48706
1183	2.5864	0.48688
1184	2.58701	0.4867
1185	2.58761	0.48652
1186	2.58821	0.48634
1187	2.58881	0.48616
1188	2.58941	0.48597
1189	2.59001	0.48579
1190	2.59061	0.48561
1191	2.5912	0.48542
1192	2.59179	0.48523
